#  E (eV)   dos(E)     Int dos(E) EFermi =   6.650 eV
  -6.000  0.0000E+00  0.0000E+00
  -5.990  0.0000E+00  0.0000E+00
  -5.980  0.0000E+00  0.0000E+00
  -5.970  0.0000E+00  0.0000E+00
  -5.960  0.0000E+00  0.0000E+00
  -5.950  0.0000E+00  0.0000E+00
  -5.940  0.0000E+00  0.0000E+00
  -5.930  0.0000E+00  0.0000E+00
  -5.920  0.0000E+00  0.0000E+00
  -5.910  0.0000E+00  0.0000E+00
  -5.900  0.0000E+00  0.0000E+00
  -5.890  0.0000E+00  0.0000E+00
  -5.880  0.0000E+00  0.0000E+00
  -5.870  0.0000E+00  0.0000E+00
  -5.860  0.0000E+00  0.0000E+00
  -5.850  0.0000E+00  0.0000E+00
  -5.840  0.0000E+00  0.0000E+00
  -5.830  0.0000E+00  0.0000E+00
  -5.820  0.0000E+00  0.0000E+00
  -5.810  0.0000E+00  0.0000E+00
  -5.800  0.0000E+00  0.0000E+00
  -5.790  0.0000E+00  0.0000E+00
  -5.780  0.0000E+00  0.0000E+00
  -5.770  0.0000E+00  0.0000E+00
  -5.760  0.4311E-06  0.4311E-08
  -5.750  0.8763E-04  0.8806E-06
  -5.740  0.3264E-03  0.4144E-05
  -5.730  0.7166E-03  0.1131E-04
  -5.720  0.1258E-02  0.2389E-04
  -5.710  0.1952E-02  0.4341E-04
  -5.700  0.2797E-02  0.7138E-04
  -5.690  0.3793E-02  0.1093E-03
  -5.680  0.4941E-02  0.1587E-03
  -5.670  0.6240E-02  0.2211E-03
  -5.660  0.7691E-02  0.2980E-03
  -5.650  0.9294E-02  0.3910E-03
  -5.640  0.1105E-01  0.5015E-03
  -5.630  0.1295E-01  0.6310E-03
  -5.620  0.1501E-01  0.7811E-03
  -5.610  0.1722E-01  0.9533E-03
  -5.600  0.1958E-01  0.1149E-02
  -5.590  0.2209E-01  0.1370E-02
  -5.580  0.2475E-01  0.1618E-02
  -5.570  0.2757E-01  0.1893E-02
  -5.560  0.3054E-01  0.2199E-02
  -5.550  0.3365E-01  0.2535E-02
  -5.540  0.3692E-01  0.2904E-02
  -5.530  0.4034E-01  0.3308E-02
  -5.520  0.4392E-01  0.3747E-02
  -5.510  0.4764E-01  0.4223E-02
  -5.500  0.5152E-01  0.4739E-02
  -5.490  0.5554E-01  0.5294E-02
  -5.480  0.5972E-01  0.5891E-02
  -5.470  0.6405E-01  0.6532E-02
  -5.460  0.6853E-01  0.7217E-02
  -5.450  0.7317E-01  0.7949E-02
  -5.440  0.7795E-01  0.8728E-02
  -5.430  0.8289E-01  0.9557E-02
  -5.420  0.8798E-01  0.1044E-01
  -5.410  0.9321E-01  0.1137E-01
  -5.400  0.9861E-01  0.1236E-01
  -5.390  0.1456E+00  0.1381E-01
  -5.380  0.1866E+00  0.1568E-01
  -5.370  0.2202E+00  0.1788E-01
  -5.360  0.2463E+00  0.2034E-01
  -5.350  0.2651E+00  0.2299E-01
  -5.340  0.2765E+00  0.2576E-01
  -5.330  0.2806E+00  0.2856E-01
  -5.320  0.2772E+00  0.3134E-01
  -5.310  0.2664E+00  0.3400E-01
  -5.300  0.2482E+00  0.3648E-01
  -5.290  0.2226E+00  0.3871E-01
  -5.280  0.1896E+00  0.4060E-01
  -5.270  0.1793E+00  0.4240E-01
  -5.260  0.1820E+00  0.4421E-01
  -5.250  0.1846E+00  0.4606E-01
  -5.240  0.1873E+00  0.4793E-01
  -5.230  0.1900E+00  0.4983E-01
  -5.220  0.1927E+00  0.5176E-01
  -5.210  0.1954E+00  0.5371E-01
  -5.200  0.1981E+00  0.5570E-01
  -5.190  0.2009E+00  0.5770E-01
  -5.180  0.2036E+00  0.5974E-01
  -5.170  0.2064E+00  0.6180E-01
  -5.160  0.2092E+00  0.6390E-01
  -5.150  0.2120E+00  0.6602E-01
  -5.140  0.2148E+00  0.6817E-01
  -5.130  0.2177E+00  0.7034E-01
  -5.120  0.2205E+00  0.7255E-01
  -5.110  0.2234E+00  0.7478E-01
  -5.100  0.2263E+00  0.7704E-01
  -5.090  0.2292E+00  0.7934E-01
  -5.080  0.2321E+00  0.8166E-01
  -5.070  0.2350E+00  0.8401E-01
  -5.060  0.2380E+00  0.8639E-01
  -5.050  0.2410E+00  0.8880E-01
  -5.040  0.2439E+00  0.9124E-01
  -5.030  0.2469E+00  0.9371E-01
  -5.020  0.2499E+00  0.9620E-01
  -5.010  0.2530E+00  0.9873E-01
  -5.000  0.2560E+00  0.1013E+00
  -4.990  0.2591E+00  0.1039E+00
  -4.980  0.2621E+00  0.1065E+00
  -4.970  0.2652E+00  0.1092E+00
  -4.960  0.2683E+00  0.1118E+00
  -4.950  0.2714E+00  0.1146E+00
  -4.940  0.2746E+00  0.1173E+00
  -4.930  0.2777E+00  0.1201E+00
  -4.920  0.2809E+00  0.1229E+00
  -4.910  0.2840E+00  0.1257E+00
  -4.900  0.2872E+00  0.1286E+00
  -4.890  0.2904E+00  0.1315E+00
  -4.880  0.2937E+00  0.1344E+00
  -4.870  0.2969E+00  0.1374E+00
  -4.860  0.3002E+00  0.1404E+00
  -4.850  0.3034E+00  0.1434E+00
  -4.840  0.3067E+00  0.1465E+00
  -4.830  0.3100E+00  0.1496E+00
  -4.820  0.3133E+00  0.1527E+00
  -4.810  0.3170E+00  0.1559E+00
  -4.800  0.3224E+00  0.1591E+00
  -4.790  0.3276E+00  0.1624E+00
  -4.780  0.3328E+00  0.1657E+00
  -4.770  0.3378E+00  0.1691E+00
  -4.760  0.3427E+00  0.1726E+00
  -4.750  0.3476E+00  0.1760E+00
  -4.740  0.3523E+00  0.1795E+00
  -4.730  0.3569E+00  0.1831E+00
  -4.720  0.3614E+00  0.1867E+00
  -4.710  0.3658E+00  0.1904E+00
  -4.700  0.3701E+00  0.1941E+00
  -4.690  0.3743E+00  0.1978E+00
  -4.680  0.3783E+00  0.2016E+00
  -4.670  0.3823E+00  0.2054E+00
  -4.660  0.3862E+00  0.2093E+00
  -4.650  0.3899E+00  0.2132E+00
  -4.640  0.3936E+00  0.2171E+00
  -4.630  0.3971E+00  0.2211E+00
  -4.620  0.4005E+00  0.2251E+00
  -4.610  0.4038E+00  0.2292E+00
  -4.600  0.4071E+00  0.2332E+00
  -4.590  0.4102E+00  0.2373E+00
  -4.580  0.4132E+00  0.2415E+00
  -4.570  0.4161E+00  0.2456E+00
  -4.560  0.4189E+00  0.2498E+00
  -4.550  0.4215E+00  0.2540E+00
  -4.540  0.4241E+00  0.2583E+00
  -4.530  0.4266E+00  0.2625E+00
  -4.520  0.4289E+00  0.2668E+00
  -4.510  0.4312E+00  0.2711E+00
  -4.500  0.4333E+00  0.2755E+00
  -4.490  0.4354E+00  0.2798E+00
  -4.480  0.4373E+00  0.2842E+00
  -4.470  0.4391E+00  0.2886E+00
  -4.460  0.4392E+00  0.2930E+00
  -4.450  0.4330E+00  0.2973E+00
  -4.440  0.4280E+00  0.3016E+00
  -4.430  0.4243E+00  0.3058E+00
  -4.420  0.4219E+00  0.3100E+00
  -4.410  0.4209E+00  0.3143E+00
  -4.400  0.4211E+00  0.3185E+00
  -4.390  0.4227E+00  0.3227E+00
  -4.380  0.4254E+00  0.3269E+00
  -4.370  0.4284E+00  0.3312E+00
  -4.360  0.4313E+00  0.3355E+00
  -4.350  0.4344E+00  0.3399E+00
  -4.340  0.4374E+00  0.3443E+00
  -4.330  0.4405E+00  0.3487E+00
  -4.320  0.4436E+00  0.3531E+00
  -4.310  0.4468E+00  0.3576E+00
  -4.300  0.4500E+00  0.3621E+00
  -4.290  0.4532E+00  0.3666E+00
  -4.280  0.4565E+00  0.3712E+00
  -4.270  0.4598E+00  0.3758E+00
  -4.260  0.4631E+00  0.3804E+00
  -4.250  0.4665E+00  0.3851E+00
  -4.240  0.4699E+00  0.3898E+00
  -4.230  0.4734E+00  0.3945E+00
  -4.220  0.4768E+00  0.3993E+00
  -4.210  0.4803E+00  0.4041E+00
  -4.200  0.4839E+00  0.4089E+00
  -4.190  0.4875E+00  0.4138E+00
  -4.180  0.4911E+00  0.4187E+00
  -4.170  0.4948E+00  0.4236E+00
  -4.160  0.4984E+00  0.4286E+00
  -4.150  0.5022E+00  0.4336E+00
  -4.140  0.5059E+00  0.4387E+00
  -4.130  0.5097E+00  0.4438E+00
  -4.120  0.5135E+00  0.4489E+00
  -4.110  0.5174E+00  0.4541E+00
  -4.100  0.5213E+00  0.4593E+00
  -4.090  0.5252E+00  0.4646E+00
  -4.080  0.5292E+00  0.4699E+00
  -4.070  0.5332E+00  0.4752E+00
  -4.060  0.5373E+00  0.4806E+00
  -4.050  0.5413E+00  0.4860E+00
  -4.040  0.5454E+00  0.4914E+00
  -4.030  0.5496E+00  0.4969E+00
  -4.020  0.5538E+00  0.5025E+00
  -4.010  0.5580E+00  0.5081E+00
  -4.000  0.5622E+00  0.5137E+00
  -3.990  0.5665E+00  0.5193E+00
  -3.980  0.5708E+00  0.5250E+00
  -3.970  0.5752E+00  0.5308E+00
  -3.960  0.5796E+00  0.5366E+00
  -3.950  0.5840E+00  0.5424E+00
  -3.940  0.5885E+00  0.5483E+00
  -3.930  0.5930E+00  0.5542E+00
  -3.920  0.5975E+00  0.5602E+00
  -3.910  0.6021E+00  0.5662E+00
  -3.900  0.6067E+00  0.5723E+00
  -3.890  0.6113E+00  0.5784E+00
  -3.880  0.6160E+00  0.5846E+00
  -3.870  0.6207E+00  0.5908E+00
  -3.860  0.6254E+00  0.5970E+00
  -3.850  0.6302E+00  0.6033E+00
  -3.840  0.6350E+00  0.6097E+00
  -3.830  0.6398E+00  0.6161E+00
  -3.820  0.6446E+00  0.6225E+00
  -3.810  0.6495E+00  0.6290E+00
  -3.800  0.6544E+00  0.6356E+00
  -3.790  0.6593E+00  0.6422E+00
  -3.780  0.6642E+00  0.6488E+00
  -3.770  0.6691E+00  0.6555E+00
  -3.760  0.6741E+00  0.6622E+00
  -3.750  0.6790E+00  0.6690E+00
  -3.740  0.6840E+00  0.6759E+00
  -3.730  0.6890E+00  0.6828E+00
  -3.720  0.6941E+00  0.6897E+00
  -3.710  0.6991E+00  0.6967E+00
  -3.700  0.7042E+00  0.7037E+00
  -3.690  0.7093E+00  0.7108E+00
  -3.680  0.7144E+00  0.7180E+00
  -3.670  0.7196E+00  0.7252E+00
  -3.660  0.7247E+00  0.7324E+00
  -3.650  0.7421E+00  0.7398E+00
  -3.640  0.7674E+00  0.7475E+00
  -3.630  0.7916E+00  0.7554E+00
  -3.620  0.8146E+00  0.7636E+00
  -3.610  0.8365E+00  0.7719E+00
  -3.600  0.8572E+00  0.7805E+00
  -3.590  0.8767E+00  0.7893E+00
  -3.580  0.8950E+00  0.7982E+00
  -3.570  0.9122E+00  0.8074E+00
  -3.560  0.9282E+00  0.8166E+00
  -3.550  0.9430E+00  0.8261E+00
  -3.540  0.9567E+00  0.8356E+00
  -3.530  0.9692E+00  0.8453E+00
  -3.520  0.9805E+00  0.8551E+00
  -3.510  0.9907E+00  0.8650E+00
  -3.500  0.9997E+00  0.8750E+00
  -3.490  0.1007E+01  0.8851E+00
  -3.480  0.1014E+01  0.8952E+00
  -3.470  0.1020E+01  0.9054E+00
  -3.460  0.1023E+01  0.9157E+00
  -3.450  0.1026E+01  0.9259E+00
  -3.440  0.1027E+01  0.9362E+00
  -3.430  0.1026E+01  0.9465E+00
  -3.420  0.1025E+01  0.9567E+00
  -3.410  0.1022E+01  0.9669E+00
  -3.400  0.1018E+01  0.9771E+00
  -3.390  0.1013E+01  0.9872E+00
  -3.380  0.1007E+01  0.9973E+00
  -3.370  0.1000E+01  0.1007E+01
  -3.360  0.9924E+00  0.1017E+01
  -3.350  0.9833E+00  0.1027E+01
  -3.340  0.9731E+00  0.1037E+01
  -3.330  0.9619E+00  0.1046E+01
  -3.320  0.9495E+00  0.1056E+01
  -3.310  0.9361E+00  0.1065E+01
  -3.300  0.9216E+00  0.1074E+01
  -3.290  0.9061E+00  0.1084E+01
  -3.280  0.8894E+00  0.1092E+01
  -3.270  0.8735E+00  0.1101E+01
  -3.260  0.8719E+00  0.1110E+01
  -3.250  0.8703E+00  0.1119E+01
  -3.240  0.8688E+00  0.1127E+01
  -3.230  0.8673E+00  0.1136E+01
  -3.220  0.8659E+00  0.1145E+01
  -3.210  0.8645E+00  0.1153E+01
  -3.200  0.8632E+00  0.1162E+01
  -3.190  0.8619E+00  0.1171E+01
  -3.180  0.8606E+00  0.1179E+01
  -3.170  0.8594E+00  0.1188E+01
  -3.160  0.8582E+00  0.1196E+01
  -3.150  0.8570E+00  0.1205E+01
  -3.140  0.8560E+00  0.1213E+01
  -3.130  0.8549E+00  0.1222E+01
  -3.120  0.8539E+00  0.1231E+01
  -3.110  0.8529E+00  0.1239E+01
  -3.100  0.8520E+00  0.1248E+01
  -3.090  0.8511E+00  0.1256E+01
  -3.080  0.8503E+00  0.1265E+01
  -3.070  0.8494E+00  0.1273E+01
  -3.060  0.8487E+00  0.1282E+01
  -3.050  0.8480E+00  0.1290E+01
  -3.040  0.8473E+00  0.1299E+01
  -3.030  0.8466E+00  0.1307E+01
  -3.020  0.8460E+00  0.1315E+01
  -3.010  0.8455E+00  0.1324E+01
  -3.000  0.8450E+00  0.1332E+01
  -2.990  0.8445E+00  0.1341E+01
  -2.980  0.8441E+00  0.1349E+01
  -2.970  0.8437E+00  0.1358E+01
  -2.960  0.8433E+00  0.1366E+01
  -2.950  0.8430E+00  0.1375E+01
  -2.940  0.8428E+00  0.1383E+01
  -2.930  0.8426E+00  0.1391E+01
  -2.920  0.8424E+00  0.1400E+01
  -2.910  0.8422E+00  0.1408E+01
  -2.900  0.8421E+00  0.1417E+01
  -2.890  0.8421E+00  0.1425E+01
  -2.880  0.8421E+00  0.1434E+01
  -2.870  0.8421E+00  0.1442E+01
  -2.860  0.8422E+00  0.1450E+01
  -2.850  0.8423E+00  0.1459E+01
  -2.840  0.8424E+00  0.1467E+01
  -2.830  0.8426E+00  0.1476E+01
  -2.820  0.8429E+00  0.1484E+01
  -2.810  0.8432E+00  0.1492E+01
  -2.800  0.8435E+00  0.1501E+01
  -2.790  0.8438E+00  0.1509E+01
  -2.780  0.8442E+00  0.1518E+01
  -2.770  0.8447E+00  0.1526E+01
  -2.760  0.8452E+00  0.1535E+01
  -2.750  0.8457E+00  0.1543E+01
  -2.740  0.8463E+00  0.1552E+01
  -2.730  0.8469E+00  0.1560E+01
  -2.720  0.8476E+00  0.1569E+01
  -2.710  0.8482E+00  0.1577E+01
  -2.700  0.8490E+00  0.1586E+01
  -2.690  0.8491E+00  0.1594E+01
  -2.680  0.8475E+00  0.1602E+01
  -2.670  0.8452E+00  0.1611E+01
  -2.660  0.8422E+00  0.1619E+01
  -2.650  0.8385E+00  0.1628E+01
  -2.640  0.8341E+00  0.1636E+01
  -2.630  0.8289E+00  0.1644E+01
  -2.620  0.8230E+00  0.1653E+01
  -2.610  0.8164E+00  0.1661E+01
  -2.600  0.8091E+00  0.1669E+01
  -2.590  0.8011E+00  0.1677E+01
  -2.580  0.7923E+00  0.1685E+01
  -2.570  0.7828E+00  0.1693E+01
  -2.560  0.7726E+00  0.1700E+01
  -2.550  0.7616E+00  0.1708E+01
  -2.540  0.7500E+00  0.1715E+01
  -2.530  0.7376E+00  0.1723E+01
  -2.520  0.7245E+00  0.1730E+01
  -2.510  0.7106E+00  0.1737E+01
  -2.500  0.6961E+00  0.1744E+01
  -2.490  0.6527E+00  0.1751E+01
  -2.480  0.6250E+00  0.1757E+01
  -2.470  0.6150E+00  0.1763E+01
  -2.460  0.6051E+00  0.1769E+01
  -2.450  0.5953E+00  0.1775E+01
  -2.440  0.5855E+00  0.1781E+01
  -2.430  0.5758E+00  0.1787E+01
  -2.420  0.5662E+00  0.1792E+01
  -2.410  0.5566E+00  0.1798E+01
  -2.400  0.5471E+00  0.1803E+01
  -2.390  0.5377E+00  0.1809E+01
  -2.380  0.5284E+00  0.1814E+01
  -2.370  0.5191E+00  0.1819E+01
  -2.360  0.5100E+00  0.1824E+01
  -2.350  0.5008E+00  0.1829E+01
  -2.340  0.4918E+00  0.1834E+01
  -2.330  0.4828E+00  0.1839E+01
  -2.320  0.4739E+00  0.1844E+01
  -2.310  0.4651E+00  0.1849E+01
  -2.300  0.4564E+00  0.1853E+01
  -2.290  0.4477E+00  0.1858E+01
  -2.280  0.4391E+00  0.1862E+01
  -2.270  0.4306E+00  0.1866E+01
  -2.260  0.4221E+00  0.1870E+01
  -2.250  0.4137E+00  0.1875E+01
  -2.240  0.4054E+00  0.1879E+01
  -2.230  0.3972E+00  0.1883E+01
  -2.220  0.3891E+00  0.1887E+01
  -2.210  0.3810E+00  0.1890E+01
  -2.200  0.3730E+00  0.1894E+01
  -2.190  0.3650E+00  0.1898E+01
  -2.180  0.3571E+00  0.1901E+01
  -2.170  0.3494E+00  0.1905E+01
  -2.160  0.3416E+00  0.1908E+01
  -2.150  0.3340E+00  0.1912E+01
  -2.140  0.3264E+00  0.1915E+01
  -2.130  0.3189E+00  0.1918E+01
  -2.120  0.3115E+00  0.1921E+01
  -2.110  0.3041E+00  0.1924E+01
  -2.100  0.2969E+00  0.1927E+01
  -2.090  0.2896E+00  0.1930E+01
  -2.080  0.2825E+00  0.1933E+01
  -2.070  0.2755E+00  0.1936E+01
  -2.060  0.2685E+00  0.1938E+01
  -2.050  0.2616E+00  0.1941E+01
  -2.040  0.2547E+00  0.1943E+01
  -2.030  0.2479E+00  0.1946E+01
  -2.020  0.2413E+00  0.1948E+01
  -2.010  0.2346E+00  0.1951E+01
  -2.000  0.2281E+00  0.1953E+01
  -1.990  0.2216E+00  0.1955E+01
  -1.980  0.2152E+00  0.1957E+01
  -1.970  0.2089E+00  0.1959E+01
  -1.960  0.2026E+00  0.1961E+01
  -1.950  0.1964E+00  0.1963E+01
  -1.940  0.1903E+00  0.1965E+01
  -1.930  0.1843E+00  0.1967E+01
  -1.920  0.1783E+00  0.1969E+01
  -1.910  0.1725E+00  0.1971E+01
  -1.900  0.1666E+00  0.1972E+01
  -1.890  0.1609E+00  0.1974E+01
  -1.880  0.1552E+00  0.1975E+01
  -1.870  0.1496E+00  0.1977E+01
  -1.860  0.1441E+00  0.1978E+01
  -1.850  0.1387E+00  0.1980E+01
  -1.840  0.1333E+00  0.1981E+01
  -1.830  0.1280E+00  0.1982E+01
  -1.820  0.1228E+00  0.1984E+01
  -1.810  0.1176E+00  0.1985E+01
  -1.800  0.1125E+00  0.1986E+01
  -1.790  0.1075E+00  0.1987E+01
  -1.780  0.1026E+00  0.1988E+01
  -1.770  0.9772E-01  0.1989E+01
  -1.760  0.9293E-01  0.1990E+01
  -1.750  0.8822E-01  0.1991E+01
  -1.740  0.8357E-01  0.1992E+01
  -1.730  0.7901E-01  0.1992E+01
  -1.720  0.7451E-01  0.1993E+01
  -1.710  0.7009E-01  0.1994E+01
  -1.700  0.6574E-01  0.1995E+01
  -1.690  0.6146E-01  0.1995E+01
  -1.680  0.5726E-01  0.1996E+01
  -1.670  0.5313E-01  0.1996E+01
  -1.660  0.4908E-01  0.1997E+01
  -1.650  0.4509E-01  0.1997E+01
  -1.640  0.4118E-01  0.1998E+01
  -1.630  0.3735E-01  0.1998E+01
  -1.620  0.3358E-01  0.1998E+01
  -1.610  0.2996E-01  0.1999E+01
  -1.600  0.2660E-01  0.1999E+01
  -1.590  0.2351E-01  0.1999E+01
  -1.580  0.2069E-01  0.1999E+01
  -1.570  0.1815E-01  0.2000E+01
  -1.560  0.1588E-01  0.2000E+01
  -1.550  0.1388E-01  0.2000E+01
  -1.540  0.1215E-01  0.2000E+01
  -1.530  0.1069E-01  0.2000E+01
  -1.520  0.9506E-02  0.2000E+01
  -1.510  0.8594E-02  0.2000E+01
  -1.500  0.7954E-02  0.2000E+01
  -1.490  0.1071E-01  0.2000E+01
  -1.480  0.1427E-01  0.2001E+01
  -1.470  0.1793E-01  0.2001E+01
  -1.460  0.2170E-01  0.2001E+01
  -1.450  0.2556E-01  0.2001E+01
  -1.440  0.2953E-01  0.2002E+01
  -1.430  0.3359E-01  0.2002E+01
  -1.420  0.3776E-01  0.2002E+01
  -1.410  0.4203E-01  0.2003E+01
  -1.400  0.4640E-01  0.2003E+01
  -1.390  0.5087E-01  0.2004E+01
  -1.380  0.5544E-01  0.2004E+01
  -1.370  0.6011E-01  0.2005E+01
  -1.360  0.6489E-01  0.2005E+01
  -1.350  0.6976E-01  0.2006E+01
  -1.340  0.7474E-01  0.2007E+01
  -1.330  0.7981E-01  0.2008E+01
  -1.320  0.8499E-01  0.2009E+01
  -1.310  0.9027E-01  0.2009E+01
  -1.300  0.9565E-01  0.2010E+01
  -1.290  0.1011E+00  0.2011E+01
  -1.280  0.1067E+00  0.2012E+01
  -1.270  0.1124E+00  0.2014E+01
  -1.260  0.1182E+00  0.2015E+01
  -1.250  0.1241E+00  0.2016E+01
  -1.240  0.1301E+00  0.2017E+01
  -1.230  0.1361E+00  0.2019E+01
  -1.220  0.1423E+00  0.2020E+01
  -1.210  0.1486E+00  0.2022E+01
  -1.200  0.1550E+00  0.2023E+01
  -1.190  0.1615E+00  0.2025E+01
  -1.180  0.1681E+00  0.2026E+01
  -1.170  0.1748E+00  0.2028E+01
  -1.160  0.1816E+00  0.2030E+01
  -1.150  0.1885E+00  0.2032E+01
  -1.140  0.1955E+00  0.2034E+01
  -1.130  0.2026E+00  0.2036E+01
  -1.120  0.2098E+00  0.2038E+01
  -1.110  0.2171E+00  0.2040E+01
  -1.100  0.2245E+00  0.2042E+01
  -1.090  0.2320E+00  0.2045E+01
  -1.080  0.2396E+00  0.2047E+01
  -1.070  0.2473E+00  0.2050E+01
  -1.060  0.2551E+00  0.2052E+01
  -1.050  0.2630E+00  0.2055E+01
  -1.040  0.2710E+00  0.2057E+01
  -1.030  0.2791E+00  0.2060E+01
  -1.020  0.2873E+00  0.2063E+01
  -1.010  0.2956E+00  0.2066E+01
  -1.000  0.3041E+00  0.2069E+01
  -0.990  0.3126E+00  0.2072E+01
  -0.980  0.3212E+00  0.2075E+01
  -0.970  0.3299E+00  0.2079E+01
  -0.960  0.3387E+00  0.2082E+01
  -0.950  0.3476E+00  0.2086E+01
  -0.940  0.3566E+00  0.2089E+01
  -0.930  0.3658E+00  0.2093E+01
  -0.920  0.3750E+00  0.2097E+01
  -0.910  0.3843E+00  0.2100E+01
  -0.900  0.3937E+00  0.2104E+01
  -0.890  0.4033E+00  0.2108E+01
  -0.880  0.4129E+00  0.2113E+01
  -0.870  0.4226E+00  0.2117E+01
  -0.860  0.4324E+00  0.2121E+01
  -0.850  0.4424E+00  0.2125E+01
  -0.840  0.4524E+00  0.2130E+01
  -0.830  0.4625E+00  0.2135E+01
  -0.820  0.4728E+00  0.2139E+01
  -0.810  0.4831E+00  0.2144E+01
  -0.800  0.4935E+00  0.2149E+01
  -0.790  0.5041E+00  0.2154E+01
  -0.780  0.5147E+00  0.2159E+01
  -0.770  0.5254E+00  0.2165E+01
  -0.760  0.5371E+00  0.2170E+01
  -0.750  0.5505E+00  0.2175E+01
  -0.740  0.5657E+00  0.2181E+01
  -0.730  0.5827E+00  0.2187E+01
  -0.720  0.6014E+00  0.2193E+01
  -0.710  0.6218E+00  0.2199E+01
  -0.700  0.6440E+00  0.2206E+01
  -0.690  0.6680E+00  0.2212E+01
  -0.680  0.6937E+00  0.2219E+01
  -0.670  0.7212E+00  0.2226E+01
  -0.660  0.7504E+00  0.2234E+01
  -0.650  0.7814E+00  0.2242E+01
  -0.640  0.8313E+00  0.2250E+01
  -0.630  0.8974E+00  0.2259E+01
  -0.620  0.9569E+00  0.2269E+01
  -0.610  0.1010E+01  0.2279E+01
  -0.600  0.1056E+01  0.2289E+01
  -0.590  0.1095E+01  0.2300E+01
  -0.580  0.1128E+01  0.2311E+01
  -0.570  0.1154E+01  0.2323E+01
  -0.560  0.1175E+01  0.2335E+01
  -0.550  0.1193E+01  0.2347E+01
  -0.540  0.1208E+01  0.2359E+01
  -0.530  0.1220E+01  0.2371E+01
  -0.520  0.1229E+01  0.2383E+01
  -0.510  0.1234E+01  0.2396E+01
  -0.500  0.1236E+01  0.2408E+01
  -0.490  0.1235E+01  0.2420E+01
  -0.480  0.1230E+01  0.2433E+01
  -0.470  0.1222E+01  0.2445E+01
  -0.460  0.1211E+01  0.2457E+01
  -0.450  0.1197E+01  0.2469E+01
  -0.440  0.1180E+01  0.2481E+01
  -0.430  0.1159E+01  0.2492E+01
  -0.420  0.1135E+01  0.2504E+01
  -0.410  0.1108E+01  0.2515E+01
  -0.400  0.1104E+01  0.2526E+01
  -0.390  0.1110E+01  0.2537E+01
  -0.380  0.1109E+01  0.2548E+01
  -0.370  0.1101E+01  0.2559E+01
  -0.360  0.1095E+01  0.2570E+01
  -0.350  0.1092E+01  0.2581E+01
  -0.340  0.1089E+01  0.2592E+01
  -0.330  0.1085E+01  0.2603E+01
  -0.320  0.1082E+01  0.2613E+01
  -0.310  0.1078E+01  0.2624E+01
  -0.300  0.1074E+01  0.2635E+01
  -0.290  0.1071E+01  0.2646E+01
  -0.280  0.1067E+01  0.2656E+01
  -0.270  0.1063E+01  0.2667E+01
  -0.260  0.1058E+01  0.2678E+01
  -0.250  0.1054E+01  0.2688E+01
  -0.240  0.1050E+01  0.2699E+01
  -0.230  0.1045E+01  0.2709E+01
  -0.220  0.1041E+01  0.2719E+01
  -0.210  0.1036E+01  0.2730E+01
  -0.200  0.1031E+01  0.2740E+01
  -0.190  0.1026E+01  0.2750E+01
  -0.180  0.1021E+01  0.2761E+01
  -0.170  0.1016E+01  0.2771E+01
  -0.160  0.1011E+01  0.2781E+01
  -0.150  0.1005E+01  0.2791E+01
  -0.140  0.9996E+00  0.2801E+01
  -0.130  0.9940E+00  0.2811E+01
  -0.120  0.9882E+00  0.2821E+01
  -0.110  0.9823E+00  0.2831E+01
  -0.100  0.9763E+00  0.2840E+01
  -0.090  0.9702E+00  0.2850E+01
  -0.080  0.9640E+00  0.2860E+01
  -0.070  0.9576E+00  0.2869E+01
  -0.060  0.9512E+00  0.2879E+01
  -0.050  0.9446E+00  0.2888E+01
  -0.040  0.9379E+00  0.2898E+01
  -0.030  0.9311E+00  0.2907E+01
  -0.020  0.9242E+00  0.2916E+01
  -0.010  0.9172E+00  0.2925E+01
   0.000  0.9100E+00  0.2934E+01
   0.010  0.9028E+00  0.2943E+01
   0.020  0.8954E+00  0.2952E+01
   0.030  0.8879E+00  0.2961E+01
