#  E (eV)   dos(E)     Int dos(E) EFermi =    6.650 eV
  -6.000  0.0000E+00  0.0000E+00
  -5.990  0.0000E+00  0.0000E+00
  -5.980  0.0000E+00  0.0000E+00
  -5.970  0.0000E+00  0.0000E+00
  -5.960  0.0000E+00  0.0000E+00
  -5.950  0.0000E+00  0.0000E+00
  -5.940  0.0000E+00  0.0000E+00
  -5.930  0.0000E+00  0.0000E+00
  -5.920  0.0000E+00  0.0000E+00
  -5.910  0.0000E+00  0.0000E+00
  -5.900  0.0000E+00  0.0000E+00
  -5.890  0.0000E+00  0.0000E+00
  -5.880  0.0000E+00  0.0000E+00
  -5.870  0.0000E+00  0.0000E+00
  -5.860  0.0000E+00  0.0000E+00
  -5.850  0.0000E+00  0.0000E+00
  -5.840  0.0000E+00  0.0000E+00
  -5.830  0.0000E+00  0.0000E+00
  -5.820  0.0000E+00  0.0000E+00
  -5.810  0.0000E+00  0.0000E+00
  -5.800  0.0000E+00  0.0000E+00
  -5.790  0.0000E+00  0.0000E+00
  -5.780  0.0000E+00  0.0000E+00
  -5.770  0.0000E+00  0.0000E+00
  -5.760  0.4431E-06  0.1129E-09
  -5.750  0.8780E-04  0.3150E-06
  -5.740  0.3267E-03  0.2261E-05
  -5.730  0.7171E-03  0.7354E-05
  -5.720  0.1259E-02  0.1711E-04
  -5.710  0.1953E-02  0.3304E-04
  -5.700  0.2798E-02  0.5666E-04
  -5.690  0.3794E-02  0.8950E-04
  -5.680  0.4942E-02  0.1331E-03
  -5.670  0.6242E-02  0.1888E-03
  -5.660  0.7693E-02  0.2584E-03
  -5.650  0.9296E-02  0.3432E-03
  -5.640  0.1105E-01  0.4448E-03
  -5.630  0.1296E-01  0.5647E-03
  -5.620  0.1501E-01  0.7044E-03
  -5.610  0.1722E-01  0.8655E-03
  -5.600  0.1958E-01  0.1049E-02
  -5.590  0.2209E-01  0.1258E-02
  -5.580  0.2476E-01  0.1492E-02
  -5.570  0.2757E-01  0.1753E-02
  -5.560  0.3054E-01  0.2044E-02
  -5.550  0.3366E-01  0.2365E-02
  -5.540  0.3693E-01  0.2717E-02
  -5.530  0.4035E-01  0.3104E-02
  -5.520  0.4392E-01  0.3525E-02
  -5.510  0.4764E-01  0.3982E-02
  -5.500  0.5152E-01  0.4478E-02
  -5.490  0.5555E-01  0.5013E-02
  -5.480  0.5973E-01  0.5590E-02
  -5.470  0.6406E-01  0.6208E-02
  -5.460  0.6854E-01  0.6871E-02
  -5.450  0.7317E-01  0.7580E-02
  -5.440  0.7796E-01  0.8335E-02
  -5.430  0.8289E-01  0.9139E-02
  -5.420  0.8798E-01  0.9994E-02
  -5.410  0.9322E-01  0.1090E-01
  -5.400  0.9861E-01  0.1186E-01
  -5.390  0.1456E+00  0.1308E-01
  -5.380  0.1866E+00  0.1475E-01
  -5.370  0.2202E+00  0.1679E-01
  -5.360  0.2464E+00  0.1913E-01
  -5.350  0.2652E+00  0.2169E-01
  -5.340  0.2766E+00  0.2440E-01
  -5.330  0.2806E+00  0.2720E-01
  -5.320  0.2771E+00  0.2999E-01
  -5.310  0.2663E+00  0.3271E-01
  -5.300  0.2481E+00  0.3529E-01
  -5.290  0.2225E+00  0.3765E-01
  -5.280  0.1895E+00  0.3972E-01
  -5.270  0.1793E+00  0.4152E-01
  -5.260  0.1820E+00  0.4333E-01
  -5.250  0.1846E+00  0.4516E-01
  -5.240  0.1873E+00  0.4702E-01
  -5.230  0.1900E+00  0.4890E-01
  -5.220  0.1927E+00  0.5082E-01
  -5.210  0.1954E+00  0.5276E-01
  -5.200  0.1981E+00  0.5473E-01
  -5.190  0.2009E+00  0.5672E-01
  -5.180  0.2036E+00  0.5874E-01
  -5.170  0.2064E+00  0.6079E-01
  -5.160  0.2092E+00  0.6287E-01
  -5.150  0.2120E+00  0.6498E-01
  -5.140  0.2148E+00  0.6711E-01
  -5.130  0.2177E+00  0.6927E-01
  -5.120  0.2205E+00  0.7147E-01
  -5.110  0.2234E+00  0.7369E-01
  -5.100  0.2263E+00  0.7593E-01
  -5.090  0.2292E+00  0.7821E-01
  -5.080  0.2321E+00  0.8052E-01
  -5.070  0.2350E+00  0.8285E-01
  -5.060  0.2380E+00  0.8522E-01
  -5.050  0.2410E+00  0.8761E-01
  -5.040  0.2439E+00  0.9004E-01
  -5.030  0.2469E+00  0.9249E-01
  -5.020  0.2499E+00  0.9498E-01
  -5.010  0.2530E+00  0.9749E-01
  -5.000  0.2560E+00  0.1000E+00
  -4.990  0.2591E+00  0.1026E+00
  -4.980  0.2621E+00  0.1052E+00
  -4.970  0.2652E+00  0.1079E+00
  -4.960  0.2683E+00  0.1105E+00
  -4.950  0.2714E+00  0.1132E+00
  -4.940  0.2746E+00  0.1159E+00
  -4.930  0.2777E+00  0.1187E+00
  -4.920  0.2809E+00  0.1215E+00
  -4.910  0.2840E+00  0.1243E+00
  -4.900  0.2872E+00  0.1272E+00
  -4.890  0.2905E+00  0.1301E+00
  -4.880  0.2937E+00  0.1330E+00
  -4.870  0.2969E+00  0.1359E+00
  -4.860  0.3002E+00  0.1389E+00
  -4.850  0.3034E+00  0.1420E+00
  -4.840  0.3067E+00  0.1450E+00
  -4.830  0.3100E+00  0.1481E+00
  -4.820  0.3133E+00  0.1512E+00
  -4.810  0.3170E+00  0.1544E+00
  -4.800  0.3224E+00  0.1575E+00
  -4.790  0.3276E+00  0.1608E+00
  -4.780  0.3328E+00  0.1641E+00
  -4.770  0.3378E+00  0.1675E+00
  -4.760  0.3428E+00  0.1709E+00
  -4.750  0.3476E+00  0.1743E+00
  -4.740  0.3523E+00  0.1778E+00
  -4.730  0.3569E+00  0.1814E+00
  -4.720  0.3614E+00  0.1849E+00
  -4.710  0.3658E+00  0.1886E+00
  -4.700  0.3701E+00  0.1923E+00
  -4.690  0.3743E+00  0.1960E+00
  -4.680  0.3783E+00  0.1997E+00
  -4.670  0.3823E+00  0.2036E+00
  -4.660  0.3862E+00  0.2074E+00
  -4.650  0.3899E+00  0.2113E+00
  -4.640  0.3936E+00  0.2152E+00
  -4.630  0.3971E+00  0.2191E+00
  -4.620  0.4005E+00  0.2231E+00
  -4.610  0.4038E+00  0.2272E+00
  -4.600  0.4071E+00  0.2312E+00
  -4.590  0.4102E+00  0.2353E+00
  -4.580  0.4132E+00  0.2394E+00
  -4.570  0.4161E+00  0.2436E+00
  -4.560  0.4189E+00  0.2477E+00
  -4.550  0.4215E+00  0.2519E+00
  -4.540  0.4241E+00  0.2562E+00
  -4.530  0.4266E+00  0.2604E+00
  -4.520  0.4289E+00  0.2647E+00
  -4.510  0.4312E+00  0.2690E+00
  -4.500  0.4333E+00  0.2733E+00
  -4.490  0.4354E+00  0.2777E+00
  -4.480  0.4373E+00  0.2820E+00
  -4.470  0.4391E+00  0.2864E+00
  -4.460  0.4392E+00  0.2908E+00
  -4.450  0.4329E+00  0.2952E+00
  -4.440  0.4280E+00  0.2995E+00
  -4.430  0.4243E+00  0.3037E+00
  -4.420  0.4219E+00  0.3080E+00
  -4.410  0.4209E+00  0.3122E+00
  -4.400  0.4211E+00  0.3164E+00
  -4.390  0.4227E+00  0.3206E+00
  -4.380  0.4254E+00  0.3248E+00
  -4.370  0.4284E+00  0.3291E+00
  -4.360  0.4313E+00  0.3334E+00
  -4.350  0.4344E+00  0.3377E+00
  -4.340  0.4374E+00  0.3421E+00
  -4.330  0.4405E+00  0.3465E+00
  -4.320  0.4436E+00  0.3509E+00
  -4.310  0.4468E+00  0.3554E+00
  -4.300  0.4500E+00  0.3598E+00
  -4.290  0.4532E+00  0.3644E+00
  -4.280  0.4565E+00  0.3689E+00
  -4.270  0.4598E+00  0.3735E+00
  -4.260  0.4631E+00  0.3781E+00
  -4.250  0.4665E+00  0.3827E+00
  -4.240  0.4699E+00  0.3874E+00
  -4.230  0.4734E+00  0.3921E+00
  -4.220  0.4768E+00  0.3969E+00
  -4.210  0.4804E+00  0.4017E+00
  -4.200  0.4839E+00  0.4065E+00
  -4.190  0.4875E+00  0.4114E+00
  -4.180  0.4911E+00  0.4163E+00
  -4.170  0.4948E+00  0.4212E+00
  -4.160  0.4984E+00  0.4262E+00
  -4.150  0.5022E+00  0.4312E+00
  -4.140  0.5059E+00  0.4362E+00
  -4.130  0.5097E+00  0.4413E+00
  -4.120  0.5135E+00  0.4464E+00
  -4.110  0.5174E+00  0.4515E+00
  -4.100  0.5213E+00  0.4567E+00
  -4.090  0.5252E+00  0.4620E+00
  -4.080  0.5292E+00  0.4672E+00
  -4.070  0.5332E+00  0.4726E+00
  -4.060  0.5373E+00  0.4779E+00
  -4.050  0.5413E+00  0.4833E+00
  -4.040  0.5454E+00  0.4887E+00
  -4.030  0.5496E+00  0.4942E+00
  -4.020  0.5538E+00  0.4997E+00
  -4.010  0.5580E+00  0.5053E+00
  -4.000  0.5622E+00  0.5109E+00
  -3.990  0.5665E+00  0.5165E+00
  -3.980  0.5708E+00  0.5222E+00
  -3.970  0.5752E+00  0.5279E+00
  -3.960  0.5796E+00  0.5337E+00
  -3.950  0.5840E+00  0.5395E+00
  -3.940  0.5885E+00  0.5454E+00
  -3.930  0.5930E+00  0.5513E+00
  -3.920  0.5975E+00  0.5573E+00
  -3.910  0.6021E+00  0.5633E+00
  -3.900  0.6067E+00  0.5693E+00
  -3.890  0.6113E+00  0.5754E+00
  -3.880  0.6160E+00  0.5815E+00
  -3.870  0.6207E+00  0.5877E+00
  -3.860  0.6254E+00  0.5939E+00
  -3.850  0.6302E+00  0.6002E+00
  -3.840  0.6350E+00  0.6065E+00
  -3.830  0.6398E+00  0.6129E+00
  -3.820  0.6446E+00  0.6193E+00
  -3.810  0.6495E+00  0.6258E+00
  -3.800  0.6544E+00  0.6323E+00
  -3.790  0.6593E+00  0.6389E+00
  -3.780  0.6642E+00  0.6455E+00
  -3.770  0.6691E+00  0.6522E+00
  -3.760  0.6741E+00  0.6589E+00
  -3.750  0.6790E+00  0.6657E+00
  -3.740  0.6840E+00  0.6725E+00
  -3.730  0.6891E+00  0.6793E+00
  -3.720  0.6941E+00  0.6863E+00
  -3.710  0.6991E+00  0.6932E+00
  -3.700  0.7042E+00  0.7002E+00
  -3.690  0.7093E+00  0.7073E+00
  -3.680  0.7144E+00  0.7144E+00
  -3.670  0.7196E+00  0.7216E+00
  -3.660  0.7247E+00  0.7288E+00
  -3.650  0.7421E+00  0.7361E+00
  -3.640  0.7675E+00  0.7437E+00
  -3.630  0.7916E+00  0.7515E+00
  -3.620  0.8147E+00  0.7595E+00
  -3.610  0.8365E+00  0.7678E+00
  -3.600  0.8572E+00  0.7762E+00
  -3.590  0.8767E+00  0.7849E+00
  -3.580  0.8950E+00  0.7938E+00
  -3.570  0.9122E+00  0.8028E+00
  -3.560  0.9282E+00  0.8120E+00
  -3.550  0.9430E+00  0.8214E+00
  -3.540  0.9567E+00  0.8309E+00
  -3.530  0.9692E+00  0.8405E+00
  -3.520  0.9805E+00  0.8502E+00
  -3.510  0.9907E+00  0.8601E+00
  -3.500  0.9997E+00  0.8701E+00
  -3.490  0.1007E+01  0.8801E+00
  -3.480  0.1014E+01  0.8902E+00
  -3.470  0.1020E+01  0.9004E+00
  -3.460  0.1023E+01  0.9106E+00
  -3.450  0.1026E+01  0.9208E+00
  -3.440  0.1027E+01  0.9311E+00
  -3.430  0.1026E+01  0.9414E+00
  -3.420  0.1025E+01  0.9516E+00
  -3.410  0.1022E+01  0.9618E+00
  -3.400  0.1018E+01  0.9720E+00
  -3.390  0.1013E+01  0.9822E+00
  -3.380  0.1007E+01  0.9923E+00
  -3.370  0.1000E+01  0.1002E+01
  -3.360  0.9924E+00  0.1012E+01
  -3.350  0.9833E+00  0.1022E+01
  -3.340  0.9731E+00  0.1032E+01
  -3.330  0.9618E+00  0.1042E+01
  -3.320  0.9495E+00  0.1051E+01
  -3.310  0.9361E+00  0.1061E+01
  -3.300  0.9216E+00  0.1070E+01
  -3.290  0.9061E+00  0.1079E+01
  -3.280  0.8894E+00  0.1088E+01
  -3.270  0.8735E+00  0.1097E+01
  -3.260  0.8719E+00  0.1106E+01
  -3.250  0.8703E+00  0.1114E+01
  -3.240  0.8688E+00  0.1123E+01
  -3.230  0.8673E+00  0.1132E+01
  -3.220  0.8659E+00  0.1140E+01
  -3.210  0.8645E+00  0.1149E+01
  -3.200  0.8632E+00  0.1158E+01
  -3.190  0.8619E+00  0.1166E+01
  -3.180  0.8606E+00  0.1175E+01
  -3.170  0.8594E+00  0.1183E+01
  -3.160  0.8582E+00  0.1192E+01
  -3.150  0.8570E+00  0.1201E+01
  -3.140  0.8560E+00  0.1209E+01
  -3.130  0.8549E+00  0.1218E+01
  -3.120  0.8539E+00  0.1226E+01
  -3.110  0.8529E+00  0.1235E+01
  -3.100  0.8520E+00  0.1243E+01
  -3.090  0.8511E+00  0.1252E+01
  -3.080  0.8502E+00  0.1260E+01
  -3.070  0.8494E+00  0.1269E+01
  -3.060  0.8487E+00  0.1277E+01
  -3.050  0.8480E+00  0.1286E+01
  -3.040  0.8473E+00  0.1294E+01
  -3.030  0.8466E+00  0.1303E+01
  -3.020  0.8460E+00  0.1311E+01
  -3.010  0.8455E+00  0.1320E+01
  -3.000  0.8450E+00  0.1328E+01
  -2.990  0.8445E+00  0.1337E+01
  -2.980  0.8441E+00  0.1345E+01
  -2.970  0.8437E+00  0.1353E+01
  -2.960  0.8433E+00  0.1362E+01
  -2.950  0.8430E+00  0.1370E+01
  -2.940  0.8428E+00  0.1379E+01
  -2.930  0.8426E+00  0.1387E+01
  -2.920  0.8424E+00  0.1396E+01
  -2.910  0.8422E+00  0.1404E+01
  -2.900  0.8421E+00  0.1412E+01
  -2.890  0.8421E+00  0.1421E+01
  -2.880  0.8421E+00  0.1429E+01
  -2.870  0.8421E+00  0.1438E+01
  -2.860  0.8422E+00  0.1446E+01
  -2.850  0.8423E+00  0.1455E+01
  -2.840  0.8424E+00  0.1463E+01
  -2.830  0.8426E+00  0.1471E+01
  -2.820  0.8429E+00  0.1480E+01
  -2.810  0.8432E+00  0.1488E+01
  -2.800  0.8435E+00  0.1497E+01
  -2.790  0.8438E+00  0.1505E+01
  -2.780  0.8442E+00  0.1514E+01
  -2.770  0.8447E+00  0.1522E+01
  -2.760  0.8452E+00  0.1530E+01
  -2.750  0.8457E+00  0.1539E+01
  -2.740  0.8463E+00  0.1547E+01
  -2.730  0.8469E+00  0.1556E+01
  -2.720  0.8476E+00  0.1564E+01
  -2.710  0.8482E+00  0.1573E+01
  -2.700  0.8490E+00  0.1581E+01
  -2.690  0.8491E+00  0.1590E+01
  -2.680  0.8475E+00  0.1598E+01
  -2.670  0.8452E+00  0.1607E+01
  -2.660  0.8422E+00  0.1615E+01
  -2.650  0.8385E+00  0.1624E+01
  -2.640  0.8341E+00  0.1632E+01
  -2.630  0.8289E+00  0.1640E+01
  -2.620  0.8230E+00  0.1649E+01
  -2.610  0.8164E+00  0.1657E+01
  -2.600  0.8091E+00  0.1665E+01
  -2.590  0.8010E+00  0.1673E+01
  -2.580  0.7923E+00  0.1681E+01
  -2.570  0.7828E+00  0.1689E+01
  -2.560  0.7726E+00  0.1697E+01
  -2.550  0.7616E+00  0.1704E+01
  -2.540  0.7500E+00  0.1712E+01
  -2.530  0.7376E+00  0.1719E+01
  -2.520  0.7245E+00  0.1727E+01
  -2.510  0.7106E+00  0.1734E+01
  -2.500  0.6961E+00  0.1741E+01
  -2.490  0.6526E+00  0.1748E+01
  -2.480  0.6250E+00  0.1754E+01
  -2.470  0.6150E+00  0.1760E+01
  -2.460  0.6051E+00  0.1766E+01
  -2.450  0.5952E+00  0.1772E+01
  -2.440  0.5855E+00  0.1778E+01
  -2.430  0.5758E+00  0.1784E+01
  -2.420  0.5661E+00  0.1790E+01
  -2.410  0.5566E+00  0.1795E+01
  -2.400  0.5471E+00  0.1801E+01
  -2.390  0.5377E+00  0.1806E+01
  -2.380  0.5284E+00  0.1811E+01
  -2.370  0.5191E+00  0.1817E+01
  -2.360  0.5099E+00  0.1822E+01
  -2.350  0.5008E+00  0.1827E+01
  -2.340  0.4918E+00  0.1832E+01
  -2.330  0.4828E+00  0.1837E+01
  -2.320  0.4739E+00  0.1842E+01
  -2.310  0.4651E+00  0.1846E+01
  -2.300  0.4564E+00  0.1851E+01
  -2.290  0.4477E+00  0.1855E+01
  -2.280  0.4391E+00  0.1860E+01
  -2.270  0.4306E+00  0.1864E+01
  -2.260  0.4221E+00  0.1868E+01
  -2.250  0.4137E+00  0.1873E+01
  -2.240  0.4054E+00  0.1877E+01
  -2.230  0.3972E+00  0.1881E+01
  -2.220  0.3890E+00  0.1885E+01
  -2.210  0.3810E+00  0.1888E+01
  -2.200  0.3729E+00  0.1892E+01
  -2.190  0.3650E+00  0.1896E+01
  -2.180  0.3571E+00  0.1900E+01
  -2.170  0.3493E+00  0.1903E+01
  -2.160  0.3416E+00  0.1907E+01
  -2.150  0.3340E+00  0.1910E+01
  -2.140  0.3264E+00  0.1913E+01
  -2.130  0.3189E+00  0.1916E+01
  -2.120  0.3115E+00  0.1920E+01
  -2.110  0.3041E+00  0.1923E+01
  -2.100  0.2968E+00  0.1926E+01
  -2.090  0.2896E+00  0.1929E+01
  -2.080  0.2825E+00  0.1931E+01
  -2.070  0.2754E+00  0.1934E+01
  -2.060  0.2685E+00  0.1937E+01
  -2.050  0.2615E+00  0.1940E+01
  -2.040  0.2547E+00  0.1942E+01
  -2.030  0.2479E+00  0.1945E+01
  -2.020  0.2412E+00  0.1947E+01
  -2.010  0.2346E+00  0.1950E+01
  -2.000  0.2281E+00  0.1952E+01
  -1.990  0.2216E+00  0.1954E+01
  -1.980  0.2152E+00  0.1956E+01
  -1.970  0.2089E+00  0.1958E+01
  -1.960  0.2026E+00  0.1960E+01
  -1.950  0.1964E+00  0.1962E+01
  -1.940  0.1903E+00  0.1964E+01
  -1.930  0.1843E+00  0.1966E+01
  -1.920  0.1783E+00  0.1968E+01
  -1.910  0.1724E+00  0.1970E+01
  -1.900  0.1666E+00  0.1972E+01
  -1.890  0.1609E+00  0.1973E+01
  -1.880  0.1552E+00  0.1975E+01
  -1.870  0.1496E+00  0.1976E+01
  -1.860  0.1441E+00  0.1978E+01
  -1.850  0.1387E+00  0.1979E+01
  -1.840  0.1333E+00  0.1980E+01
  -1.830  0.1280E+00  0.1982E+01
  -1.820  0.1228E+00  0.1983E+01
  -1.810  0.1176E+00  0.1984E+01
  -1.800  0.1125E+00  0.1985E+01
  -1.790  0.1075E+00  0.1987E+01
  -1.780  0.1026E+00  0.1988E+01
  -1.770  0.9772E-01  0.1989E+01
  -1.760  0.9293E-01  0.1990E+01
  -1.750  0.8821E-01  0.1990E+01
  -1.740  0.8357E-01  0.1991E+01
  -1.730  0.7900E-01  0.1992E+01
  -1.720  0.7450E-01  0.1993E+01
  -1.710  0.7008E-01  0.1994E+01
  -1.700  0.6573E-01  0.1994E+01
  -1.690  0.6146E-01  0.1995E+01
  -1.680  0.5726E-01  0.1995E+01
  -1.670  0.5313E-01  0.1996E+01
  -1.660  0.4907E-01  0.1997E+01
  -1.650  0.4509E-01  0.1997E+01
  -1.640  0.4118E-01  0.1997E+01
  -1.630  0.3734E-01  0.1998E+01
  -1.620  0.3358E-01  0.1998E+01
  -1.610  0.2995E-01  0.1999E+01
  -1.600  0.2659E-01  0.1999E+01
  -1.590  0.2350E-01  0.1999E+01
  -1.580  0.2069E-01  0.1999E+01
  -1.570  0.1815E-01  0.1999E+01
  -1.560  0.1587E-01  0.2000E+01
  -1.550  0.1387E-01  0.2000E+01
  -1.540  0.1215E-01  0.2000E+01
  -1.530  0.1069E-01  0.2000E+01
  -1.520  0.9505E-02  0.2000E+01
  -1.510  0.8593E-02  0.2000E+01
  -1.500  0.7953E-02  0.2000E+01
  -1.490  0.1072E-01  0.2000E+01
  -1.480  0.1428E-01  0.2001E+01
  -1.470  0.1794E-01  0.2001E+01
  -1.460  0.2170E-01  0.2001E+01
  -1.450  0.2557E-01  0.2001E+01
  -1.440  0.2953E-01  0.2001E+01
  -1.430  0.3360E-01  0.2002E+01
  -1.420  0.3776E-01  0.2002E+01
  -1.410  0.4203E-01  0.2002E+01
  -1.400  0.4640E-01  0.2003E+01
  -1.390  0.5087E-01  0.2003E+01
  -1.380  0.5544E-01  0.2004E+01
  -1.370  0.6012E-01  0.2004E+01
  -1.360  0.6489E-01  0.2005E+01
  -1.350  0.6977E-01  0.2006E+01
  -1.340  0.7474E-01  0.2007E+01
  -1.330  0.7982E-01  0.2007E+01
  -1.320  0.8500E-01  0.2008E+01
  -1.310  0.9028E-01  0.2009E+01
  -1.300  0.9566E-01  0.2010E+01
  -1.290  0.1011E+00  0.2011E+01
  -1.280  0.1067E+00  0.2012E+01
  -1.270  0.1124E+00  0.2013E+01
  -1.260  0.1182E+00  0.2014E+01
  -1.250  0.1241E+00  0.2015E+01
  -1.240  0.1301E+00  0.2017E+01
  -1.230  0.1361E+00  0.2018E+01
  -1.220  0.1423E+00  0.2019E+01
  -1.210  0.1486E+00  0.2021E+01
  -1.200  0.1550E+00  0.2022E+01
  -1.190  0.1615E+00  0.2024E+01
  -1.180  0.1681E+00  0.2026E+01
  -1.170  0.1748E+00  0.2027E+01
  -1.160  0.1816E+00  0.2029E+01
  -1.150  0.1885E+00  0.2031E+01
  -1.140  0.1955E+00  0.2033E+01
  -1.130  0.2026E+00  0.2035E+01
  -1.120  0.2098E+00  0.2037E+01
  -1.110  0.2171E+00  0.2039E+01
  -1.100  0.2245E+00  0.2041E+01
  -1.090  0.2320E+00  0.2044E+01
  -1.080  0.2396E+00  0.2046E+01
  -1.070  0.2473E+00  0.2048E+01
  -1.060  0.2551E+00  0.2051E+01
  -1.050  0.2630E+00  0.2053E+01
  -1.040  0.2710E+00  0.2056E+01
  -1.030  0.2791E+00  0.2059E+01
  -1.020  0.2873E+00  0.2062E+01
  -1.010  0.2956E+00  0.2065E+01
  -1.000  0.3041E+00  0.2068E+01
  -0.990  0.3126E+00  0.2071E+01
  -0.980  0.3212E+00  0.2074E+01
  -0.970  0.3299E+00  0.2077E+01
  -0.960  0.3387E+00  0.2080E+01
  -0.950  0.3476E+00  0.2084E+01
  -0.940  0.3567E+00  0.2087E+01
  -0.930  0.3658E+00  0.2091E+01
  -0.920  0.3750E+00  0.2095E+01
  -0.910  0.3843E+00  0.2099E+01
  -0.900  0.3937E+00  0.2102E+01
  -0.890  0.4033E+00  0.2106E+01
  -0.880  0.4129E+00  0.2110E+01
  -0.870  0.4226E+00  0.2115E+01
  -0.860  0.4324E+00  0.2119E+01
  -0.850  0.4424E+00  0.2123E+01
  -0.840  0.4524E+00  0.2128E+01
  -0.830  0.4625E+00  0.2132E+01
  -0.820  0.4728E+00  0.2137E+01
  -0.810  0.4831E+00  0.2142E+01
  -0.800  0.4935E+00  0.2147E+01
  -0.790  0.5041E+00  0.2152E+01
  -0.780  0.5147E+00  0.2157E+01
  -0.770  0.5254E+00  0.2162E+01
  -0.760  0.5371E+00  0.2167E+01
  -0.750  0.5505E+00  0.2173E+01
  -0.740  0.5657E+00  0.2178E+01
  -0.730  0.5827E+00  0.2184E+01
  -0.720  0.6014E+00  0.2190E+01
  -0.710  0.6218E+00  0.2196E+01
  -0.700  0.6441E+00  0.2202E+01
  -0.690  0.6680E+00  0.2209E+01
  -0.680  0.6938E+00  0.2216E+01
  -0.670  0.7212E+00  0.2223E+01
  -0.660  0.7505E+00  0.2230E+01
  -0.650  0.7815E+00  0.2238E+01
  -0.640  0.8313E+00  0.2246E+01
  -0.630  0.8975E+00  0.2255E+01
  -0.620  0.9570E+00  0.2264E+01
  -0.610  0.1010E+01  0.2274E+01
  -0.600  0.1056E+01  0.2284E+01
  -0.590  0.1095E+01  0.2295E+01
  -0.580  0.1128E+01  0.2306E+01
  -0.570  0.1154E+01  0.2317E+01
  -0.560  0.1175E+01  0.2329E+01
  -0.550  0.1193E+01  0.2341E+01
  -0.540  0.1208E+01  0.2353E+01
  -0.530  0.1220E+01  0.2365E+01
  -0.520  0.1229E+01  0.2377E+01
  -0.510  0.1234E+01  0.2389E+01
  -0.500  0.1236E+01  0.2402E+01
  -0.490  0.1235E+01  0.2414E+01
  -0.480  0.1230E+01  0.2427E+01
  -0.470  0.1222E+01  0.2439E+01
  -0.460  0.1211E+01  0.2451E+01
  -0.450  0.1197E+01  0.2463E+01
  -0.440  0.1180E+01  0.2475E+01
  -0.430  0.1159E+01  0.2487E+01
  -0.420  0.1135E+01  0.2498E+01
  -0.410  0.1108E+01  0.2509E+01
  -0.400  0.1104E+01  0.2520E+01
  -0.390  0.1110E+01  0.2531E+01
  -0.380  0.1109E+01  0.2542E+01
  -0.370  0.1101E+01  0.2553E+01
  -0.360  0.1095E+01  0.2564E+01
  -0.350  0.1092E+01  0.2575E+01
  -0.340  0.1089E+01  0.2586E+01
  -0.330  0.1085E+01  0.2597E+01
  -0.320  0.1082E+01  0.2608E+01
  -0.310  0.1078E+01  0.2619E+01
  -0.300  0.1074E+01  0.2630E+01
  -0.290  0.1071E+01  0.2640E+01
  -0.280  0.1067E+01  0.2651E+01
  -0.270  0.1063E+01  0.2662E+01
  -0.260  0.1058E+01  0.2672E+01
  -0.250  0.1054E+01  0.2683E+01
  -0.240  0.1050E+01  0.2693E+01
  -0.230  0.1045E+01  0.2704E+01
  -0.220  0.1041E+01  0.2714E+01
  -0.210  0.1036E+01  0.2725E+01
  -0.200  0.1031E+01  0.2735E+01
  -0.190  0.1026E+01  0.2745E+01
  -0.180  0.1021E+01  0.2755E+01
  -0.170  0.1016E+01  0.2766E+01
  -0.160  0.1011E+01  0.2776E+01
  -0.150  0.1005E+01  0.2786E+01
  -0.140  0.9996E+00  0.2796E+01
  -0.130  0.9940E+00  0.2806E+01
  -0.120  0.9882E+00  0.2816E+01
  -0.110  0.9823E+00  0.2826E+01
  -0.100  0.9763E+00  0.2835E+01
  -0.090  0.9702E+00  0.2845E+01
  -0.080  0.9640E+00  0.2855E+01
  -0.070  0.9576E+00  0.2864E+01
  -0.060  0.9512E+00  0.2874E+01
  -0.050  0.9446E+00  0.2883E+01
  -0.040  0.9379E+00  0.2893E+01
  -0.030  0.9311E+00  0.2902E+01
  -0.020  0.9242E+00  0.2911E+01
  -0.010  0.9172E+00  0.2921E+01
  -0.000  0.9100E+00  0.2930E+01
   0.010  0.9028E+00  0.2939E+01
   0.020  0.8954E+00  0.2948E+01
   0.030  0.8879E+00  0.2957E+01
