#  E (eV)   dos(E)     Int dos(E) EFermi =   16.406 eV
  -6.000  0.3627E-01  0.2300E-01
  -5.990  0.3666E-01  0.2336E-01
  -5.980  0.3704E-01  0.2373E-01
  -5.970  0.3743E-01  0.2410E-01
  -5.960  0.3782E-01  0.2448E-01
  -5.950  0.3821E-01  0.2486E-01
  -5.940  0.3860E-01  0.2525E-01
  -5.930  0.3899E-01  0.2563E-01
  -5.920  0.3939E-01  0.2602E-01
  -5.910  0.3979E-01  0.2642E-01
  -5.900  0.4019E-01  0.2682E-01
  -5.890  0.4059E-01  0.2722E-01
  -5.880  0.4100E-01  0.2763E-01
  -5.870  0.4140E-01  0.2804E-01
  -5.860  0.4181E-01  0.2846E-01
  -5.850  0.4222E-01  0.2888E-01
  -5.840  0.4263E-01  0.2931E-01
  -5.830  0.4305E-01  0.2973E-01
  -5.820  0.4346E-01  0.3017E-01
  -5.810  0.4388E-01  0.3060E-01
  -5.800  0.4430E-01  0.3104E-01
  -5.790  0.4473E-01  0.3149E-01
  -5.780  0.4515E-01  0.3194E-01
  -5.770  0.4558E-01  0.3239E-01
  -5.760  0.4601E-01  0.3285E-01
  -5.750  0.4644E-01  0.3331E-01
  -5.740  0.4687E-01  0.3378E-01
  -5.730  0.4730E-01  0.3425E-01
  -5.720  0.4774E-01  0.3472E-01
  -5.710  0.4818E-01  0.3520E-01
  -5.700  0.4862E-01  0.3569E-01
  -5.690  0.4906E-01  0.3618E-01
  -5.680  0.4951E-01  0.3667E-01
  -5.670  0.4995E-01  0.3717E-01
  -5.660  0.5040E-01  0.3767E-01
  -5.650  0.5085E-01  0.3817E-01
  -5.640  0.5130E-01  0.3869E-01
  -5.630  0.5176E-01  0.3920E-01
  -5.620  0.5222E-01  0.3972E-01
  -5.610  0.5267E-01  0.4025E-01
  -5.600  0.5314E-01  0.4077E-01
  -5.590  0.5360E-01  0.4131E-01
  -5.580  0.5406E-01  0.4185E-01
  -5.570  0.5453E-01  0.4239E-01
  -5.560  0.5500E-01  0.4294E-01
  -5.550  0.5547E-01  0.4349E-01
  -5.540  0.5594E-01  0.4405E-01
  -5.530  0.5642E-01  0.4461E-01
  -5.520  0.5689E-01  0.4517E-01
  -5.510  0.5737E-01  0.4575E-01
  -5.500  0.5785E-01  0.4632E-01
  -5.490  0.5833E-01  0.4690E-01
  -5.480  0.5882E-01  0.4749E-01
  -5.470  0.5931E-01  0.4808E-01
  -5.460  0.5979E-01  0.4867E-01
  -5.450  0.6029E-01  0.4928E-01
  -5.440  0.6078E-01  0.4988E-01
  -5.430  0.6127E-01  0.5049E-01
  -5.420  0.6177E-01  0.5111E-01
  -5.410  0.6227E-01  0.5173E-01
  -5.400  0.6277E-01  0.5235E-01
  -5.390  0.6327E-01  0.5298E-01
  -5.380  0.6378E-01  0.5362E-01
  -5.370  0.6428E-01  0.5426E-01
  -5.360  0.6479E-01  0.5490E-01
  -5.350  0.6530E-01  0.5555E-01
  -5.340  0.6582E-01  0.5621E-01
  -5.330  0.6633E-01  0.5687E-01
  -5.320  0.6685E-01  0.5753E-01
  -5.310  0.6737E-01  0.5821E-01
  -5.300  0.6789E-01  0.5888E-01
  -5.290  0.6841E-01  0.5956E-01
  -5.280  0.6893E-01  0.6025E-01
  -5.270  0.6946E-01  0.6094E-01
  -5.260  0.6999E-01  0.6164E-01
  -5.250  0.7052E-01  0.6234E-01
  -5.240  0.7105E-01  0.6305E-01
  -5.230  0.7159E-01  0.6376E-01
  -5.220  0.7212E-01  0.6448E-01
  -5.210  0.7266E-01  0.6521E-01
  -5.200  0.7320E-01  0.6594E-01
  -5.190  0.7375E-01  0.6667E-01
  -5.180  0.7429E-01  0.6741E-01
  -5.170  0.7484E-01  0.6816E-01
  -5.160  0.7539E-01  0.6891E-01
  -5.150  0.7594E-01  0.6966E-01
  -5.140  0.7649E-01  0.7043E-01
  -5.130  0.7705E-01  0.7119E-01
  -5.120  0.7760E-01  0.7197E-01
  -5.110  0.7816E-01  0.7275E-01
  -5.100  0.7872E-01  0.7353E-01
  -5.090  0.7929E-01  0.7432E-01
  -5.080  0.7985E-01  0.7512E-01
  -5.070  0.8042E-01  0.7592E-01
  -5.060  0.8099E-01  0.7672E-01
  -5.050  0.8156E-01  0.7754E-01
  -5.040  0.8213E-01  0.7836E-01
  -5.030  0.8271E-01  0.7918E-01
  -5.020  0.8328E-01  0.8001E-01
  -5.010  0.8386E-01  0.8084E-01
  -5.000  0.8444E-01  0.8169E-01
  -4.990  0.8502E-01  0.8253E-01
  -4.980  0.8561E-01  0.8339E-01
  -4.970  0.8620E-01  0.8425E-01
  -4.960  0.8679E-01  0.8511E-01
  -4.950  0.8738E-01  0.8598E-01
  -4.940  0.8797E-01  0.8686E-01
  -4.930  0.8856E-01  0.8774E-01
  -4.920  0.8916E-01  0.8863E-01
  -4.910  0.8976E-01  0.8952E-01
  -4.900  0.9036E-01  0.9042E-01
  -4.890  0.9096E-01  0.9133E-01
  -4.880  0.9157E-01  0.9224E-01
  -4.870  0.9218E-01  0.9316E-01
  -4.860  0.9279E-01  0.9409E-01
  -4.850  0.9340E-01  0.9502E-01
  -4.840  0.9401E-01  0.9596E-01
  -4.830  0.9462E-01  0.9690E-01
  -4.820  0.9524E-01  0.9785E-01
  -4.810  0.9586E-01  0.9880E-01
  -4.800  0.9648E-01  0.9977E-01
  -4.790  0.9710E-01  0.1007E+00
  -4.780  0.9773E-01  0.1017E+00
  -4.770  0.9836E-01  0.1027E+00
  -4.760  0.9899E-01  0.1037E+00
  -4.750  0.9962E-01  0.1047E+00
  -4.740  0.1003E+00  0.1057E+00
  -4.730  0.1009E+00  0.1067E+00
  -4.720  0.1015E+00  0.1077E+00
  -4.710  0.1022E+00  0.1087E+00
  -4.700  0.1028E+00  0.1097E+00
  -4.690  0.1034E+00  0.1108E+00
  -4.680  0.1041E+00  0.1118E+00
  -4.670  0.1047E+00  0.1128E+00
  -4.660  0.1054E+00  0.1139E+00
  -4.650  0.1060E+00  0.1149E+00
  -4.640  0.1067E+00  0.1160E+00
  -4.630  0.1073E+00  0.1171E+00
  -4.620  0.1080E+00  0.1182E+00
  -4.610  0.1087E+00  0.1192E+00
  -4.600  0.1093E+00  0.1203E+00
  -4.590  0.1100E+00  0.1214E+00
  -4.580  0.1107E+00  0.1225E+00
  -4.570  0.1113E+00  0.1236E+00
  -4.560  0.1120E+00  0.1248E+00
  -4.550  0.1127E+00  0.1259E+00
  -4.540  0.1133E+00  0.1270E+00
  -4.530  0.1140E+00  0.1281E+00
  -4.520  0.1147E+00  0.1293E+00
  -4.510  0.1154E+00  0.1304E+00
  -4.500  0.1160E+00  0.1316E+00
  -4.490  0.1167E+00  0.1328E+00
  -4.480  0.1174E+00  0.1339E+00
  -4.470  0.1181E+00  0.1351E+00
  -4.460  0.1188E+00  0.1363E+00
  -4.450  0.1195E+00  0.1375E+00
  -4.440  0.1202E+00  0.1387E+00
  -4.430  0.1209E+00  0.1399E+00
  -4.420  0.1216E+00  0.1411E+00
  -4.410  0.1223E+00  0.1423E+00
  -4.400  0.1230E+00  0.1435E+00
  -4.390  0.1237E+00  0.1448E+00
  -4.380  0.1244E+00  0.1460E+00
  -4.370  0.1251E+00  0.1473E+00
  -4.360  0.1258E+00  0.1485E+00
  -4.350  0.1265E+00  0.1498E+00
  -4.340  0.1272E+00  0.1511E+00
  -4.330  0.1279E+00  0.1523E+00
  -4.320  0.1286E+00  0.1536E+00
  -4.310  0.1294E+00  0.1549E+00
  -4.300  0.1301E+00  0.1562E+00
  -4.290  0.1308E+00  0.1575E+00
  -4.280  0.1315E+00  0.1588E+00
  -4.270  0.1323E+00  0.1601E+00
  -4.260  0.1330E+00  0.1615E+00
  -4.250  0.1337E+00  0.1628E+00
  -4.240  0.1345E+00  0.1641E+00
  -4.230  0.1352E+00  0.1655E+00
  -4.220  0.1359E+00  0.1668E+00
  -4.210  0.1367E+00  0.1682E+00
  -4.200  0.1374E+00  0.1696E+00
  -4.190  0.1382E+00  0.1710E+00
  -4.180  0.1389E+00  0.1723E+00
  -4.170  0.1396E+00  0.1737E+00
  -4.160  0.1404E+00  0.1751E+00
  -4.150  0.1412E+00  0.1765E+00
  -4.140  0.1419E+00  0.1780E+00
  -4.130  0.1427E+00  0.1794E+00
  -4.120  0.1434E+00  0.1808E+00
  -4.110  0.1442E+00  0.1822E+00
  -4.100  0.1449E+00  0.1837E+00
  -4.090  0.1457E+00  0.1851E+00
  -4.080  0.1465E+00  0.1866E+00
  -4.070  0.1472E+00  0.1881E+00
  -4.060  0.1480E+00  0.1895E+00
  -4.050  0.1488E+00  0.1910E+00
  -4.040  0.1495E+00  0.1925E+00
  -4.030  0.1503E+00  0.1940E+00
  -4.020  0.1511E+00  0.1955E+00
  -4.010  0.1519E+00  0.1970E+00
  -4.000  0.1527E+00  0.1986E+00
  -3.990  0.1534E+00  0.2001E+00
  -3.980  0.1542E+00  0.2016E+00
  -3.970  0.1550E+00  0.2032E+00
  -3.960  0.1558E+00  0.2047E+00
  -3.950  0.1566E+00  0.2063E+00
  -3.940  0.1574E+00  0.2079E+00
  -3.930  0.1582E+00  0.2094E+00
  -3.920  0.1590E+00  0.2110E+00
  -3.910  0.1598E+00  0.2126E+00
  -3.900  0.1606E+00  0.2142E+00
  -3.890  0.1614E+00  0.2158E+00
  -3.880  0.1622E+00  0.2175E+00
  -3.870  0.1630E+00  0.2191E+00
  -3.860  0.1638E+00  0.2207E+00
  -3.850  0.1646E+00  0.2224E+00
  -3.840  0.1654E+00  0.2240E+00
  -3.830  0.1663E+00  0.2257E+00
  -3.820  0.1671E+00  0.2273E+00
  -3.810  0.1679E+00  0.2290E+00
  -3.800  0.1687E+00  0.2307E+00
  -3.790  0.1695E+00  0.2324E+00
  -3.780  0.1704E+00  0.2341E+00
  -3.770  0.1712E+00  0.2358E+00
  -3.760  0.1720E+00  0.2375E+00
  -3.750  0.1729E+00  0.2392E+00
  -3.740  0.1737E+00  0.2410E+00
  -3.730  0.1745E+00  0.2427E+00
  -3.720  0.1754E+00  0.2445E+00
  -3.710  0.1762E+00  0.2462E+00
  -3.700  0.1770E+00  0.2480E+00
  -3.690  0.1779E+00  0.2498E+00
  -3.680  0.1787E+00  0.2515E+00
  -3.670  0.1796E+00  0.2533E+00
  -3.660  0.1804E+00  0.2551E+00
  -3.650  0.1813E+00  0.2569E+00
  -3.640  0.1821E+00  0.2588E+00
  -3.630  0.1830E+00  0.2606E+00
  -3.620  0.1838E+00  0.2624E+00
  -3.610  0.1847E+00  0.2643E+00
  -3.600  0.1856E+00  0.2661E+00
  -3.590  0.1864E+00  0.2680E+00
  -3.580  0.1873E+00  0.2698E+00
  -3.570  0.1882E+00  0.2717E+00
  -3.560  0.1890E+00  0.2736E+00
  -3.550  0.1899E+00  0.2755E+00
  -3.540  0.1908E+00  0.2774E+00
  -3.530  0.1917E+00  0.2793E+00
  -3.520  0.1925E+00  0.2812E+00
  -3.510  0.1934E+00  0.2832E+00
  -3.500  0.1943E+00  0.2851E+00
  -3.490  0.1952E+00  0.2870E+00
  -3.480  0.1961E+00  0.2890E+00
  -3.470  0.1969E+00  0.2910E+00
  -3.460  0.1978E+00  0.2929E+00
  -3.450  0.1987E+00  0.2949E+00
  -3.440  0.1996E+00  0.2969E+00
  -3.430  0.2005E+00  0.2989E+00
  -3.420  0.2014E+00  0.3009E+00
  -3.410  0.2023E+00  0.3029E+00
  -3.400  0.2032E+00  0.3050E+00
  -3.390  0.2041E+00  0.3070E+00
  -3.380  0.2050E+00  0.3091E+00
  -3.370  0.2059E+00  0.3111E+00
  -3.360  0.2068E+00  0.3132E+00
  -3.350  0.2078E+00  0.3152E+00
  -3.340  0.2087E+00  0.3173E+00
  -3.330  0.2096E+00  0.3194E+00
  -3.320  0.2105E+00  0.3215E+00
  -3.310  0.2114E+00  0.3236E+00
  -3.300  0.2123E+00  0.3257E+00
  -3.290  0.2133E+00  0.3279E+00
  -3.280  0.2142E+00  0.3300E+00
  -3.270  0.2151E+00  0.3322E+00
  -3.260  0.2161E+00  0.3343E+00
  -3.250  0.2170E+00  0.3365E+00
  -3.240  0.2179E+00  0.3387E+00
  -3.230  0.2189E+00  0.3408E+00
  -3.220  0.2198E+00  0.3430E+00
  -3.210  0.2207E+00  0.3452E+00
  -3.200  0.2217E+00  0.3474E+00
  -3.190  0.2226E+00  0.3497E+00
  -3.180  0.2236E+00  0.3519E+00
  -3.170  0.2245E+00  0.3541E+00
  -3.160  0.2255E+00  0.3564E+00
  -3.150  0.2264E+00  0.3586E+00
  -3.140  0.2274E+00  0.3609E+00
  -3.130  0.2283E+00  0.3632E+00
  -3.120  0.2293E+00  0.3655E+00
  -3.110  0.2302E+00  0.3678E+00
  -3.100  0.2312E+00  0.3701E+00
  -3.090  0.2322E+00  0.3724E+00
  -3.080  0.2331E+00  0.3747E+00
  -3.070  0.2341E+00  0.3771E+00
  -3.060  0.2351E+00  0.3794E+00
  -3.050  0.2360E+00  0.3818E+00
  -3.040  0.2370E+00  0.3841E+00
  -3.030  0.2380E+00  0.3865E+00
  -3.020  0.2390E+00  0.3889E+00
  -3.010  0.2400E+00  0.3913E+00
  -3.000  0.2409E+00  0.3937E+00
  -2.990  0.2419E+00  0.3961E+00
  -2.980  0.2429E+00  0.3985E+00
  -2.970  0.2439E+00  0.4010E+00
  -2.960  0.2449E+00  0.4034E+00
  -2.950  0.2459E+00  0.4059E+00
  -2.940  0.2469E+00  0.4083E+00
  -2.930  0.2479E+00  0.4108E+00
  -2.920  0.2489E+00  0.4133E+00
  -2.910  0.2499E+00  0.4158E+00
  -2.900  0.2509E+00  0.4183E+00
  -2.890  0.2519E+00  0.4208E+00
  -2.880  0.2529E+00  0.4233E+00
  -2.870  0.2539E+00  0.4259E+00
  -2.860  0.2549E+00  0.4284E+00
  -2.850  0.2559E+00  0.4310E+00
  -2.840  0.2569E+00  0.4335E+00
  -2.830  0.2579E+00  0.4361E+00
  -2.820  0.2590E+00  0.4387E+00
  -2.810  0.2600E+00  0.4413E+00
  -2.800  0.2610E+00  0.4439E+00
  -2.790  0.2620E+00  0.4465E+00
  -2.780  0.2630E+00  0.4491E+00
  -2.770  0.2641E+00  0.4517E+00
  -2.760  0.2651E+00  0.4544E+00
  -2.750  0.2661E+00  0.4571E+00
  -2.740  0.2672E+00  0.4597E+00
  -2.730  0.2682E+00  0.4624E+00
  -2.720  0.2692E+00  0.4651E+00
  -2.710  0.2703E+00  0.4678E+00
  -2.700  0.2713E+00  0.4705E+00
  -2.690  0.2724E+00  0.4732E+00
  -2.680  0.2734E+00  0.4759E+00
  -2.670  0.2745E+00  0.4787E+00
  -2.660  0.2755E+00  0.4814E+00
  -2.650  0.2766E+00  0.4842E+00
  -2.640  0.2776E+00  0.4870E+00
  -2.630  0.2787E+00  0.4897E+00
  -2.620  0.2797E+00  0.4925E+00
  -2.610  0.2808E+00  0.4953E+00
  -2.600  0.2819E+00  0.4981E+00
  -2.590  0.2829E+00  0.5010E+00
  -2.580  0.2840E+00  0.5038E+00
  -2.570  0.2851E+00  0.5066E+00
  -2.560  0.2861E+00  0.5095E+00
  -2.550  0.2872E+00  0.5124E+00
  -2.540  0.2883E+00  0.5152E+00
  -2.530  0.2893E+00  0.5181E+00
  -2.520  0.2904E+00  0.5210E+00
  -2.510  0.2915E+00  0.5239E+00
  -2.500  0.2926E+00  0.5269E+00
  -2.490  0.2937E+00  0.5298E+00
  -2.480  0.2948E+00  0.5327E+00
  -2.470  0.2958E+00  0.5357E+00
  -2.460  0.2969E+00  0.5387E+00
  -2.450  0.2980E+00  0.5416E+00
  -2.440  0.2991E+00  0.5446E+00
  -2.430  0.3002E+00  0.5476E+00
  -2.420  0.3013E+00  0.5506E+00
  -2.410  0.3024E+00  0.5536E+00
  -2.400  0.3035E+00  0.5567E+00
  -2.390  0.3046E+00  0.5597E+00
  -2.380  0.3057E+00  0.5628E+00
  -2.370  0.3068E+00  0.5658E+00
  -2.360  0.3080E+00  0.5689E+00
  -2.350  0.3091E+00  0.5720E+00
  -2.340  0.3102E+00  0.5751E+00
  -2.330  0.3113E+00  0.5782E+00
  -2.320  0.3124E+00  0.5813E+00
  -2.310  0.3135E+00  0.5844E+00
  -2.300  0.3147E+00  0.5876E+00
  -2.290  0.3158E+00  0.5907E+00
  -2.280  0.3169E+00  0.5939E+00
  -2.270  0.3180E+00  0.5971E+00
  -2.260  0.3192E+00  0.6003E+00
  -2.250  0.3203E+00  0.6035E+00
  -2.240  0.3214E+00  0.6067E+00
  -2.230  0.3226E+00  0.6099E+00
  -2.220  0.3237E+00  0.6131E+00
  -2.210  0.3248E+00  0.6164E+00
  -2.200  0.3260E+00  0.6196E+00
  -2.190  0.3271E+00  0.6229E+00
  -2.180  0.3283E+00  0.6262E+00
  -2.170  0.3294E+00  0.6294E+00
  -2.160  0.3306E+00  0.6327E+00
  -2.150  0.3317E+00  0.6361E+00
  -2.140  0.3329E+00  0.6394E+00
  -2.130  0.3340E+00  0.6427E+00
  -2.120  0.3352E+00  0.6461E+00
  -2.110  0.3364E+00  0.6494E+00
  -2.100  0.3375E+00  0.6528E+00
  -2.090  0.3387E+00  0.6562E+00
  -2.080  0.3399E+00  0.6596E+00
  -2.070  0.3410E+00  0.6630E+00
  -2.060  0.3455E+00  0.6664E+00
  -2.050  0.3500E+00  0.6699E+00
  -2.040  0.3544E+00  0.6734E+00
  -2.030  0.3588E+00  0.6770E+00
  -2.020  0.3631E+00  0.6806E+00
  -2.010  0.3675E+00  0.6842E+00
  -2.000  0.3717E+00  0.6879E+00
  -1.990  0.3760E+00  0.6917E+00
  -1.980  0.3802E+00  0.6954E+00
  -1.970  0.3843E+00  0.6993E+00
  -1.960  0.3885E+00  0.7031E+00
  -1.950  0.3925E+00  0.7070E+00
  -1.940  0.3966E+00  0.7110E+00
  -1.930  0.4006E+00  0.7150E+00
  -1.920  0.4046E+00  0.7190E+00
  -1.910  0.4085E+00  0.7231E+00
  -1.900  0.4124E+00  0.7272E+00
  -1.890  0.4163E+00  0.7313E+00
  -1.880  0.4201E+00  0.7355E+00
  -1.870  0.4239E+00  0.7397E+00
  -1.860  0.4276E+00  0.7440E+00
  -1.850  0.4313E+00  0.7483E+00
  -1.840  0.4350E+00  0.7526E+00
  -1.830  0.4386E+00  0.7570E+00
  -1.820  0.4422E+00  0.7614E+00
  -1.810  0.4457E+00  0.7658E+00
  -1.800  0.4493E+00  0.7703E+00
  -1.790  0.4527E+00  0.7748E+00
  -1.780  0.4562E+00  0.7793E+00
  -1.770  0.4596E+00  0.7839E+00
  -1.760  0.4629E+00  0.7885E+00
  -1.750  0.4662E+00  0.7932E+00
  -1.740  0.4695E+00  0.7978E+00
  -1.730  0.4728E+00  0.8026E+00
  -1.720  0.4760E+00  0.8073E+00
  -1.710  0.4791E+00  0.8121E+00
  -1.700  0.4823E+00  0.8169E+00
  -1.690  0.4854E+00  0.8217E+00
  -1.680  0.4884E+00  0.8266E+00
  -1.670  0.4914E+00  0.8315E+00
  -1.660  0.4944E+00  0.8364E+00
  -1.650  0.4973E+00  0.8414E+00
  -1.640  0.5002E+00  0.8464E+00
  -1.630  0.5031E+00  0.8514E+00
  -1.620  0.5059E+00  0.8564E+00
  -1.610  0.5087E+00  0.8615E+00
  -1.600  0.5115E+00  0.8666E+00
  -1.590  0.5142E+00  0.8717E+00
  -1.580  0.5168E+00  0.8769E+00
  -1.570  0.5195E+00  0.8821E+00
  -1.560  0.5221E+00  0.8873E+00
  -1.550  0.5246E+00  0.8925E+00
  -1.540  0.5271E+00  0.8978E+00
  -1.530  0.5296E+00  0.9030E+00
  -1.520  0.5321E+00  0.9084E+00
  -1.510  0.5345E+00  0.9137E+00
  -1.500  0.5368E+00  0.9190E+00
  -1.490  0.5391E+00  0.9244E+00
  -1.480  0.5414E+00  0.9298E+00
  -1.470  0.5437E+00  0.9353E+00
  -1.460  0.5459E+00  0.9407E+00
  -1.450  0.5481E+00  0.9462E+00
  -1.440  0.5502E+00  0.9517E+00
  -1.430  0.5523E+00  0.9572E+00
  -1.420  0.5543E+00  0.9627E+00
  -1.410  0.5564E+00  0.9683E+00
  -1.400  0.5583E+00  0.9738E+00
  -1.390  0.5603E+00  0.9794E+00
  -1.380  0.5622E+00  0.9850E+00
  -1.370  0.5641E+00  0.9907E+00
  -1.360  0.5659E+00  0.9963E+00
  -1.350  0.5677E+00  0.1002E+01
  -1.340  0.5694E+00  0.1008E+01
  -1.330  0.5711E+00  0.1013E+01
  -1.320  0.5728E+00  0.1019E+01
  -1.310  0.5744E+00  0.1025E+01
  -1.300  0.5760E+00  0.1031E+01
  -1.290  0.5776E+00  0.1036E+01
  -1.280  0.5791E+00  0.1042E+01
  -1.270  0.5806E+00  0.1048E+01
  -1.260  0.5820E+00  0.1054E+01
  -1.250  0.5834E+00  0.1060E+01
  -1.240  0.5848E+00  0.1065E+01
  -1.230  0.5861E+00  0.1071E+01
  -1.220  0.5874E+00  0.1077E+01
  -1.210  0.5887E+00  0.1083E+01
  -1.200  0.5899E+00  0.1089E+01
  -1.190  0.5911E+00  0.1095E+01
  -1.180  0.5922E+00  0.1101E+01
  -1.170  0.5933E+00  0.1107E+01
  -1.160  0.5944E+00  0.1113E+01
  -1.150  0.5954E+00  0.1119E+01
  -1.140  0.5964E+00  0.1125E+01
  -1.130  0.5973E+00  0.1130E+01
  -1.120  0.5982E+00  0.1136E+01
  -1.110  0.5991E+00  0.1142E+01
  -1.100  0.5999E+00  0.1148E+01
  -1.090  0.6007E+00  0.1154E+01
  -1.080  0.6015E+00  0.1160E+01
  -1.070  0.6022E+00  0.1166E+01
  -1.060  0.6029E+00  0.1172E+01
  -1.050  0.6035E+00  0.1179E+01
  -1.040  0.6041E+00  0.1185E+01
  -1.030  0.6047E+00  0.1191E+01
  -1.020  0.6052E+00  0.1197E+01
  -1.010  0.6057E+00  0.1203E+01
  -1.000  0.6061E+00  0.1209E+01
  -0.990  0.6066E+00  0.1215E+01
  -0.980  0.6069E+00  0.1221E+01
  -0.970  0.6073E+00  0.1227E+01
  -0.960  0.6076E+00  0.1233E+01
  -0.950  0.6078E+00  0.1239E+01
  -0.940  0.6080E+00  0.1245E+01
  -0.930  0.6082E+00  0.1251E+01
  -0.920  0.6083E+00  0.1257E+01
  -0.910  0.6085E+00  0.1263E+01
  -0.900  0.6085E+00  0.1270E+01
  -0.890  0.6085E+00  0.1276E+01
  -0.880  0.6085E+00  0.1282E+01
  -0.870  0.6085E+00  0.1288E+01
  -0.860  0.6084E+00  0.1294E+01
  -0.850  0.6083E+00  0.1300E+01
  -0.840  0.6081E+00  0.1306E+01
  -0.830  0.6079E+00  0.1312E+01
  -0.820  0.6077E+00  0.1318E+01
  -0.810  0.6074E+00  0.1324E+01
  -0.800  0.6071E+00  0.1330E+01
  -0.790  0.6067E+00  0.1336E+01
  -0.780  0.6063E+00  0.1342E+01
  -0.770  0.6059E+00  0.1349E+01
  -0.760  0.6054E+00  0.1355E+01
  -0.750  0.6049E+00  0.1361E+01
  -0.740  0.6043E+00  0.1367E+01
  -0.730  0.6038E+00  0.1373E+01
  -0.720  0.6031E+00  0.1379E+01
  -0.710  0.6025E+00  0.1385E+01
  -0.700  0.6018E+00  0.1391E+01
  -0.690  0.6010E+00  0.1397E+01
  -0.680  0.6003E+00  0.1403E+01
  -0.670  0.5994E+00  0.1409E+01
  -0.660  0.5986E+00  0.1415E+01
  -0.650  0.5977E+00  0.1421E+01
  -0.640  0.5968E+00  0.1427E+01
  -0.630  0.5958E+00  0.1433E+01
  -0.620  0.5948E+00  0.1439E+01
  -0.610  0.5937E+00  0.1445E+01
  -0.600  0.5927E+00  0.1451E+01
  -0.590  0.5915E+00  0.1456E+01
  -0.580  0.5904E+00  0.1462E+01
  -0.570  0.5892E+00  0.1468E+01
  -0.560  0.5879E+00  0.1474E+01
  -0.550  0.5867E+00  0.1480E+01
  -0.540  0.5853E+00  0.1486E+01
  -0.530  0.5840E+00  0.1492E+01
  -0.520  0.5826E+00  0.1498E+01
  -0.510  0.5812E+00  0.1503E+01
  -0.500  0.5797E+00  0.1509E+01
  -0.490  0.5782E+00  0.1515E+01
  -0.480  0.5767E+00  0.1521E+01
  -0.470  0.5751E+00  0.1527E+01
  -0.460  0.5735E+00  0.1532E+01
  -0.450  0.5718E+00  0.1538E+01
  -0.440  0.5701E+00  0.1544E+01
  -0.430  0.5684E+00  0.1549E+01
  -0.420  0.5666E+00  0.1555E+01
  -0.410  0.5648E+00  0.1561E+01
  -0.400  0.5629E+00  0.1566E+01
  -0.390  0.5610E+00  0.1572E+01
  -0.380  0.5591E+00  0.1578E+01
  -0.370  0.5572E+00  0.1583E+01
  -0.360  0.5551E+00  0.1589E+01
  -0.350  0.5531E+00  0.1594E+01
  -0.340  0.5510E+00  0.1600E+01
  -0.330  0.5489E+00  0.1605E+01
  -0.320  0.5468E+00  0.1611E+01
  -0.310  0.5446E+00  0.1616E+01
  -0.300  0.5423E+00  0.1622E+01
  -0.290  0.5401E+00  0.1627E+01
  -0.280  0.5377E+00  0.1632E+01
  -0.270  0.5354E+00  0.1638E+01
  -0.260  0.5330E+00  0.1643E+01
  -0.250  0.5306E+00  0.1649E+01
  -0.240  0.5281E+00  0.1654E+01
  -0.230  0.5256E+00  0.1659E+01
  -0.220  0.5231E+00  0.1664E+01
  -0.210  0.5205E+00  0.1670E+01
  -0.200  0.5179E+00  0.1675E+01
  -0.190  0.5152E+00  0.1680E+01
  -0.180  0.5125E+00  0.1685E+01
  -0.170  0.5098E+00  0.1690E+01
  -0.160  0.5070E+00  0.1695E+01
  -0.150  0.5042E+00  0.1700E+01
  -0.140  0.5014E+00  0.1705E+01
  -0.130  0.4985E+00  0.1710E+01
  -0.120  0.4956E+00  0.1715E+01
  -0.110  0.4926E+00  0.1720E+01
  -0.100  0.4896E+00  0.1725E+01
  -0.090  0.4866E+00  0.1730E+01
  -0.080  0.4835E+00  0.1735E+01
  -0.070  0.4804E+00  0.1740E+01
  -0.060  0.4772E+00  0.1744E+01
  -0.050  0.4740E+00  0.1749E+01
  -0.040  0.4708E+00  0.1754E+01
  -0.030  0.4675E+00  0.1759E+01
  -0.020  0.4642E+00  0.1763E+01
  -0.010  0.4609E+00  0.1768E+01
  -0.000  0.4575E+00  0.1773E+01
   0.010  0.4541E+00  0.1777E+01
   0.020  0.4506E+00  0.1782E+01
   0.030  0.4471E+00  0.1786E+01
